 # t(s)  r(m)  phi(rad)  dr/dt(m/s)  dphi/dt(rad/s)
   0.0000000000000000        237637148096743.66        0.0000000000000000        0.0000000000000000        9.4551201903462275E-004
  0.10000000149011612        237637149158973.41        9.4551203030624590E-005   21244594.395685926        9.4551201058181149E-004
  0.20000000298023224        237637152345662.59        1.8910240437068697E-004   42489188.221596301        9.4551198522337869E-004
  0.30000000447034836        237637157656811.16        2.8365360232962501E-004   63733780.907955661        9.4551194295932706E-004
  0.40000000596046448        237637165092418.94        3.7820479521687703E-004   84978371.884988695        9.4551188378966115E-004
  0.50000000745058060        237637174652485.72        4.7275598134188194E-004   106222960.58292031        9.4551180771438724E-004
  0.60000000894069672        237637186337011.28        5.6730715901407922E-004   127467546.43197571        9.4551171473351359E-004
  0.70000001043081284        237637200145995.28        6.6185832654290944E-004   148712128.86238050        9.4551160484705006E-004
  0.80000001192092896        237637216079437.38        7.5640948223781412E-004   169956707.30436075        9.4551147805500846E-004
  0.90000001341104507        237637234137337.09        8.5096062440823605E-004   191201281.18814304        9.4551133435740245E-004
   1.0000000149011612        237637254319694.00        9.4551175136361955E-004   212445849.94395459        9.4551117375424743E-004
   1.1000000163912773        237637276626507.53        1.0400628614134107E-003   233690413.00202325        9.4551099624556065E-004
   1.2000000178813934        237637301057777.09        1.1346139528670570E-003   254934969.79257771        9.4551080183136107E-004
   1.3000000193715096        237637327613502.03        1.2291650240340082E-003   276179519.74584746        9.4551059051166961E-004
   1.4000000208616257        237637356293681.62        1.3237160732237163E-003   297424062.29206294        9.4551036228650894E-004
   1.5000000223517418        237637387098315.12        1.4182670987456355E-003   318668596.86145550        9.4551011715590357E-004
   1.6000000238418579        237637420027401.69        1.5128180989092228E-003   339913122.88425767        9.4550985511987972E-004
   1.7000000253319740        237637455080940.44        1.6073690720239374E-003   361157639.79070306        9.4550957617846559E-004
   1.8000000268220901        237637492258930.41        1.7019200163992420E-003   382402147.01102644        9.4550928033169110E-004
   1.9000000283122063        237637531561370.62        1.7964709303446020E-003   403646643.97546405        9.4550896757958792E-004
   2.0000000298023224        237637572988260.03        1.8910218121694861E-003   424891130.11425334        9.4550863792218964E-004
   2.1000000312924385        237637616539597.53        1.9855726601833664E-003   446135604.85763335        9.4550829135953162E-004
   2.2000000327825546        237637662215381.94        2.0801234726957191E-003   467380067.63584453        9.4550792789165105E-004
   2.3000000342726707        237637710015612.03        2.1746742480160237E-003   488624517.87912899        9.4550754751858684E-004
   2.4000000357627869        237637759940286.53        2.2692249844537635E-003   509868955.01773053        9.4550715024037987E-004
   2.5000000372529030        237637811989404.09        2.3637756803184268E-003   531113378.48189467        9.4550673605707275E-004
   2.6000000387430191        237637866162963.34        2.4583263339195056E-003   552357787.70186877        9.4550630496870994E-004
   2.7000000402331352        237637922460962.81        2.5528769435664966E-003   573602182.10790217        9.4550585697533761E-004
   2.8000000417232513        237637980883400.97        2.6474275075689013E-003   594846561.13024616        9.4550539207700391E-004
   2.9000000432133675        237638041430276.28        2.7419780242362258E-003   616090924.19915402        9.4550491027375861E-004
   3.0000000447034836        237638104101587.09        2.8365284918779820E-003   637335270.74488115        9.4550441156565353E-004
   3.1000000461935997        237638168897331.75        2.9310789088036861E-003   658579600.19768536        9.4550389595274200E-004
   3.2000000476837158        237638235817508.50        3.0256292733228602E-003   679823911.98782659        9.4550336343507944E-004
   3.3000000491738319        237638304862115.56        3.1201795837450317E-003   701068205.54556715        9.4550281401272298E-004
   3.4000000506639481        237638376031151.06        3.2147298383797349E-003   722312480.30117190        9.4550224768573160E-004
   3.5000000521540642        237638449324613.12        3.3092800355365086E-003   743556735.68490815        9.4550166445416602E-004
   3.6000000536441803        237638524742499.75        3.4038301735248989E-003   764800971.12704575        9.4550106431808868E-004
   3.7000000551342964        237638602284808.94        3.4983802506544574E-003   786045186.05785739        9.4550044727756410E-004
   3.8000000566244125        237638681951538.59        3.5929302652347433E-003   807289379.90761828        9.4549981333265842E-004
   3.9000000581145287        237638763742686.59        3.6874802155753214E-003   828533552.10660672        9.4549916248343972E-004
   4.0000000596046448        237638847658250.75        3.7820300999857636E-003   849777702.08510363        9.4549849472997771E-004
   4.1000000610947609        237638933698228.78        3.8765799167756495E-003   871021829.27339315        9.4549781007234406E-004
   4.2000000625848770        237639021862618.41        3.9711296642545657E-003   892265933.10176241        9.4549710851061228E-004
   4.3000000640749931        237639112151417.25        4.0656793407321057E-003   913510013.00050163        9.4549639004485762E-004
   4.4000000655651093        237639204564622.91        4.1602289445178712E-003   934754068.39990425        9.4549565467515705E-004
   4.5000000670552254        237639299102232.88        4.2547784739214714E-003   955998098.73026693        9.4549490240158950E-004
   4.6000000685453415        237639395764244.62        4.3493279272525239E-003   977242103.42188978        9.4549413322423575E-004
   4.7000000700354576        237639494550655.59        4.4438773028206537E-003   998486081.90507638        9.4549334714317829E-004
   4.8000000715255737        237639595461463.09        4.5384265989354949E-003   1019730033.6101338        9.4549254415850139E-004
   4.9000000730156898        237639698496664.44        4.6329758139066896E-003   1040973957.9673725        9.4549172427029122E-004
   5.0000000745058060        237639803656256.84        4.7275249460438894E-003   1062217854.4071071        9.4549088747863572E-004
   5.1000000759959221        237639910940237.53        4.8220739936567537E-003   1083461722.3596554        9.4549003378362466E-004
   5.2000000774860382        237640020348603.59        4.9166229550549516E-003   1104705561.2553394        9.4548916318534955E-004
   5.3000000789761543        237640131881352.09        5.0111718285481615E-003   1125949370.5244846        9.4548827568390384E-004
   5.4000000804662704        237640245538480.06        5.1057206124460706E-003   1147193149.5974212        9.4548737127938274E-004
   5.5000000819563866        237640361319984.41        5.2002693050583765E-003   1168436897.9044826        9.4548644997188326E-004
   5.6000000834465027        237640479225862.06        5.2948179046947864E-003   1189680614.8760068        9.4548551176150419E-004
   5.7000000849366188        237640599256109.88        5.3893664096650177E-003   1210924299.9423358        9.4548455664834625E-004
   5.8000000864267349        237640721410724.59        5.4839148182787966E-003   1232167952.5338161        9.4548358463251189E-004
   5.9000000879168510        237640845689702.97        5.5784631288458616E-003   1253411572.0807984        9.4548259571410531E-004
   6.0000000894069672        237640972093041.62        5.6730113396759596E-003   1274655158.0136380        9.4548158989323265E-004
   6.1000000908970833        237641100620737.22        5.7675594490788507E-003   1295898709.7626946        9.4548056717000178E-004
   6.2000000923871994        237641231272786.28        5.8621074553643036E-003   1317142226.7583323        9.4547952754452233E-004
   6.3000000938773155        237641364049185.31        5.9566553568420992E-003   1338385708.4309201        9.4547847101690596E-004
   6.4000000953674316        237641498949930.75        6.0512031518220296E-003   1359629154.2108316        9.4547739758726586E-004
   6.5000000968575478        237641635975019.00        6.1457508386138981E-003   1380872563.5284455        9.4547630725571729E-004
   6.6000000983476639        237641775124446.34        6.2402984155275195E-003   1402115935.8141448        9.4547520002237712E-004
   6.7000000998377800        237641916398209.09        6.3348458808727207E-003   1423359270.4983180        9.4547407588736418E-004
   6.8000001013278961        237642059796303.44        6.4293932329593396E-003   1444602567.0113585        9.4547293485079903E-004
   6.9000001028180122        237642205318725.53        6.5239404700972283E-003   1465845824.7836647        9.4547177691280408E-004
   7.0000001043081284        237642352965471.47        6.6184875905962491E-003   1487089043.2456403        9.4547060207350359E-004
   7.1000001057982445        237642502736537.28        6.7130345927662784E-003   1508332221.8276944        9.4546941033302352E-004
   7.2000001072883606        237642654631918.97        6.8075814749172037E-003   1529575359.9602411        9.4546820169149172E-004
   7.3000001087784767        237642808651612.47        6.9021282353589272E-003   1550818457.0737002        9.4546697614903774E-004
   7.4000001102685928        237642964795613.62        6.9966748724013626E-003   1572061512.5984969        9.4546573370579310E-004
   7.5000001117587090        237643123063918.25        7.0912213843544380E-003   1593304525.9650621        9.4546447436189116E-004
   7.6000001132488251        237643283456522.12        7.1857677695280940E-003   1614547496.6038322        9.4546319811746689E-004
   7.7000001147389412        237643445973420.94        7.2803140262322850E-003   1635790423.9452493        9.4546190497265723E-004
   7.8000001162290573        237643610614610.31        7.3748601527769799E-003   1657033307.4197614        9.4546059492760085E-004
   7.9000001177191734        237643777380085.88        7.4694061474721608E-003   1678276146.4578226        9.4545926798243827E-004
   8.0000001192092896        237643946269843.12        7.5639520086278238E-003   1699518940.4898925        9.4545792413731184E-004
   8.1000001206994057        237644117283877.53        7.6584977345539804E-003   1720761688.9464369        9.4545656339236565E-004
   8.2000001221895218        237644290422184.50        7.7530433235606551E-003   1742004391.2579279        9.4545518574774574E-004
   8.3000001236796379        237644465684759.41        7.8475887739578882E-003   1763247046.8548436        9.4545379120359989E-004
   8.4000001251697540        237644643071597.56        7.9421340840557346E-003   1784489655.1676686        9.4545237976007761E-004
   8.5000001266598701        237644822582694.19        8.0366792521642631E-003   1805732215.6268933        9.4545095141733025E-004
   8.6000001281499863        237645004218044.47        8.1312242765935600E-003   1826974727.6630151        9.4544950617551113E-004
   8.7000001296401024        237645187977643.53        8.2257691556537268E-003   1848217190.7065377        9.4544804403477517E-004
   8.8000001311302185        237645373861486.47        8.3203138876548777E-003   1869459604.1879711        9.4544656499527925E-004
   8.9000001326203346        237645561869568.28        8.4148584709071456E-003   1890701967.5378325        9.4544506905718201E-004
   9.0000001341104507        237645752001883.94        8.5094029037206791E-003   1911944280.1866453        9.4544355622064389E-004
   9.1000001356005669        237645944258428.31        8.6039471844056407E-003   1933186541.5649397        9.4544202648582710E-004
   9.2000001370906830        237646138639196.28        8.6984913112722103E-003   1954428751.1032534        9.4544047985289578E-004
   9.3000001385807991        237646335144182.62        8.7930352826305867E-003   1975670908.2321303        9.4543891632201571E-004
   9.4000001400709152        237646533773382.06        8.8875790967909828E-003   1996913012.3821218        9.4543733589335472E-004
   9.5000001415610313        237646734526789.28        8.9821227520636270E-003   2018155062.9837863        9.4543573856708228E-004
   9.6000001430511475        237646937404398.88        9.0766662467587685E-003   2039397059.4676893        9.4543412434336968E-004
   9.7000001445412636        237647142406205.44        9.1712095791866722E-003   2060639001.2644033        9.4543249322238997E-004
   9.8000001460313797        237647349532203.44        9.2657527476576185E-003   2081880887.8045089        9.4543084520431824E-004
   9.9000001475214958        237647558782387.34        9.3602957504819086E-003   2103122718.5185933        9.4542918028933112E-004
